TITLE,CdSe-
DATA TYPE,ULTRAVIOLET SPECTRUM
ORIGIN,JASCO
OWNER,
DATE,23/10/18
TIME,15:16:01
SPECTROMETER/DATA SYSTEM,
LOCALE,1033
RESOLUTION,
DELTAX,-1
XUNITS,NANOMETERS
YUNITS,ABSORBANCE
FIRSTX,  700.0000
LASTX,  300.0000
NPOINTS,     401
FIRSTY,     0.01549
MAXY,     7.00000
MINY,     0.01549
XYDATA
700.0000,0.0154927
699.0000,0.0156618
698.0000,0.0155881
697.0000,0.0156174
696.0000,0.015747
695.0000,0.0156801
694.0000,0.0157357
693.0000,0.0157811
692.0000,0.0158324
691.0000,0.0158326
690.0000,0.0159303
689.0000,0.0159182
688.0000,0.0159522
687.0000,0.0160172
686.0000,0.0161089
685.0000,0.0161488
684.0000,0.0162607
683.0000,0.016309
682.0000,0.0162183
681.0000,0.0163693
680.0000,0.0164026
679.0000,0.0164651
678.0000,0.0165711
677.0000,0.0166287
676.0000,0.0166819
675.0000,0.0168753
674.0000,0.016998
673.0000,0.0170944
672.0000,0.0172297
671.0000,0.017411
670.0000,0.0175163
669.0000,0.0175625
668.0000,0.0174898
667.0000,0.0174238
666.0000,0.01739
665.0000,0.0172962
664.0000,0.0172857
663.0000,0.0172124
662.0000,0.0171871
661.0000,0.0171726
660.0000,0.0172005
659.0000,0.0171256
658.0000,0.017097
657.0000,0.0171716
656.0000,0.017204
655.0000,0.0170658
654.0000,0.0171118
653.0000,0.017237
652.0000,0.017365
651.0000,0.0173846
650.0000,0.0174363
649.0000,0.0174885
648.0000,0.0175353
647.0000,0.0174268
646.0000,0.0176098
645.0000,0.0177166
644.0000,0.0178564
643.0000,0.0177881
642.0000,0.0179592
641.0000,0.0179787
640.0000,0.0181348
639.0000,0.0182018
638.0000,0.0182666
637.0000,0.0182418
636.0000,0.0183033
635.0000,0.018466
634.0000,0.0185104
633.0000,0.0185635
632.0000,0.0186448
631.0000,0.0187416
630.0000,0.0187136
629.0000,0.0188047
628.0000,0.0189248
627.0000,0.0189341
626.0000,0.0190116
625.0000,0.0191358
624.0000,0.0192428
623.0000,0.0194128
622.0000,0.019495
621.0000,0.0195969
620.0000,0.0197017
619.0000,0.0198386
618.0000,0.0199115
617.0000,0.0199796
616.0000,0.0201525
615.0000,0.0202297
614.0000,0.0203692
613.0000,0.0205127
612.0000,0.0206337
611.0000,0.0207709
610.0000,0.0208503
609.0000,0.0210837
608.0000,0.0212234
607.0000,0.0213803
606.0000,0.0215693
605.0000,0.0217111
604.0000,0.0218887
603.0000,0.0220964
602.0000,0.0223229
601.0000,0.022518
600.0000,0.0227714
599.0000,0.0230313
598.0000,0.0231295
597.0000,0.0234524
596.0000,0.0237388
595.0000,0.0240829
594.0000,0.0244727
593.0000,0.0247776
592.0000,0.0252145
591.0000,0.025624
590.0000,0.0261746
589.0000,0.0266798
588.0000,0.0273367
587.0000,0.0282446
586.0000,0.0290133
585.0000,0.0298693
584.0000,0.0311529
583.0000,0.0324273
582.0000,0.0339331
581.0000,0.0357187
580.0000,0.0378498
579.0000,0.0401329
578.0000,0.0428747
577.0000,0.046163
576.0000,0.04981
575.0000,0.0541488
574.0000,0.0590392
573.0000,0.0647225
572.0000,0.0711984
571.0000,0.0787506
570.0000,0.0871721
569.0000,0.0965477
568.0000,0.107147
567.0000,0.119026
566.0000,0.13193
565.0000,0.146113
564.0000,0.161384
563.0000,0.177776
562.0000,0.195131
561.0000,0.213369
560.0000,0.232179
559.0000,0.251345
558.0000,0.270793
557.0000,0.290292
556.0000,0.309362
555.0000,0.328008
554.0000,0.34595
553.0000,0.362976
552.0000,0.378805
551.0000,0.393231
550.0000,0.406265
549.0000,0.417884
548.0000,0.427893
547.0000,0.43634
546.0000,0.443354
545.0000,0.448826
544.0000,0.45296
543.0000,0.455871
542.0000,0.457655
541.0000,0.458389
540.0000,0.458453
539.0000,0.457716
538.0000,0.456584
537.0000,0.455021
536.0000,0.45326
535.0000,0.451474
534.0000,0.449559
533.0000,0.447805
532.0000,0.446332
531.0000,0.445093
530.0000,0.444002
529.0000,0.443162
528.0000,0.442649
527.0000,0.442518
526.0000,0.442548
525.0000,0.442883
524.0000,0.443502
523.0000,0.444301
522.0000,0.445207
521.0000,0.446379
520.0000,0.447902
519.0000,0.449415
518.0000,0.451103
517.0000,0.452877
516.0000,0.455019
515.0000,0.457103
514.0000,0.459445
513.0000,0.461791
512.0000,0.464367
511.0000,0.467209
510.0000,0.470027
509.0000,0.473189
508.0000,0.476299
507.0000,0.479419
506.0000,0.482696
505.0000,0.486271
504.0000,0.489857
503.0000,0.493629
502.0000,0.497307
501.0000,0.501206
500.0000,0.505275
499.0000,0.509428
498.0000,0.513569
497.0000,0.517776
496.0000,0.522131
495.0000,0.526653
494.0000,0.531097
493.0000,0.535672
492.0000,0.540324
491.0000,0.545058
490.0000,0.549945
489.0000,0.554921
488.0000,0.56005
487.0000,0.56526
486.0000,0.570706
485.0000,0.576246
484.0000,0.582094
483.0000,0.587853
482.0000,0.593836
481.0000,0.599999
480.0000,0.606238
479.0000,0.612758
478.0000,0.619448
477.0000,0.626278
476.0000,0.633282
475.0000,0.640486
474.0000,0.647756
473.0000,0.655255
472.0000,0.662872
471.0000,0.670636
470.0000,0.678686
469.0000,0.686766
468.0000,0.695155
467.0000,0.703702
466.0000,0.712175
465.0000,0.721176
464.0000,0.730109
463.0000,0.739103
462.0000,0.748368
461.0000,0.757724
460.0000,0.767339
459.0000,0.776873
458.0000,0.786629
457.0000,0.796426
456.0000,0.806351
455.0000,0.816281
454.0000,0.826482
453.0000,0.836737
452.0000,0.847247
451.0000,0.85808
450.0000,0.868866
449.0000,0.879828
448.0000,0.890976
447.0000,0.902389
446.0000,0.913996
445.0000,0.925686
444.0000,0.937854
443.0000,0.950054
442.0000,0.962574
441.0000,0.975504
440.0000,0.98869
439.0000,1.00208
438.0000,1.01587
437.0000,1.03004
436.0000,1.04487
435.0000,1.06009
434.0000,1.07571
433.0000,1.09203
432.0000,1.10888
431.0000,1.12629
430.0000,1.14425
429.0000,1.16307
428.0000,1.18259
427.0000,1.20294
426.0000,1.22369
425.0000,1.24559
424.0000,1.26809
423.0000,1.29128
422.0000,1.31536
421.0000,1.34088
420.0000,1.36929
419.0000,1.3968
418.0000,1.42508
417.0000,1.45414
416.0000,1.48431
415.0000,1.515
414.0000,1.54715
413.0000,1.57934
412.0000,1.61233
411.0000,1.64615
410.0000,1.6801
409.0000,1.71437
408.0000,1.74889
407.0000,1.78318
406.0000,1.8181
405.0000,1.85228
404.0000,1.88683
403.0000,1.9217
402.0000,1.95565
401.0000,1.99065
400.0000,2.0252
399.0000,2.05964
398.0000,2.09449
397.0000,2.12799
396.0000,2.16155
395.0000,2.19529
394.0000,2.22916
393.0000,2.26284
392.0000,2.29699
391.0000,2.32957
390.0000,2.36328
389.0000,2.39689
388.0000,2.4325
387.0000,2.46804
386.0000,2.50539
385.0000,2.54291
384.0000,2.58159
383.0000,2.62228
382.0000,2.66605
381.0000,2.70887
380.0000,2.75316
379.0000,2.80046
378.0000,2.85065
377.0000,2.90113
376.0000,2.95037
375.0000,3.00647
374.0000,3.0662
373.0000,3.12503
372.0000,3.18888
371.0000,3.25346
370.0000,3.41773
369.0000,3.50422
368.0000,3.57529
367.0000,3.68016
366.0000,3.78079
365.0000,3.91414
364.0000,4.05617
363.0000,4.29815
362.0000,4.55378
361.0000,7
360.0000,7
359.0000,7
358.0000,7
357.0000,7
356.0000,7
355.0000,7
354.0000,7
353.0000,7
352.0000,7
351.0000,7
350.0000,7
349.0000,7
348.0000,7
347.0000,7
346.0000,7
345.0000,7
344.0000,7
343.0000,7
342.0000,7
341.0000,7
340.0000,7
339.0000,7
338.0000,7
337.0000,7
336.0000,7
335.0000,7
334.0000,7
333.0000,7
332.0000,7
331.0000,7
330.0000,7
329.0000,7
328.0000,7
327.0000,7
326.0000,7
325.0000,7
324.0000,7
323.0000,7
322.0000,7
321.0000,7
320.0000,7
319.0000,7
318.0000,7
317.0000,7
316.0000,7
315.0000,7
314.0000,7
313.0000,7
312.0000,7
311.0000,7
310.0000,7
309.0000,7
308.0000,7
307.0000,7
306.0000,7
305.0000,7
304.0000,7
303.0000,7
302.0000,7
301.0000,7
300.0000,7

##### Extended Information
[Comments]
Sample name,CdSe-
Comment
User
Division
Company,Dickinson College

[Detailed Information]
Creation date,10/18/2023 2:16 PM

Data array type,Linear data array
Horizontal axis,Wavelength [nm]
Vertical axis,Abs
Start,700 nm
End,300 nm
Data interval,1 nm
Data points,401     

[Measurement Information]
Instrument name,Spectro
Model name,V-670
Serial No.,A042861154

Measurement date,10/18/2023 2:15 PM

Photometric mode,Abs
Measurement range,700 - 300 nm
Data interval,1 nm
UV/Vis bandwidth,2.0 nm
NIR bandwidth,8.0 nm
Response,Fast
Scan speed,400 nm/min
Change source at,340 nm
Change grating at,850 nm
Light source,D2/WI
Filter exchange,Step
Correction,Baseline

