TITLE	
DATA TYPE	
ORIGIN	JASCO
OWNER	
DATE	23/10/18
TIME	15:08:32
SPECTROMETER/DATA SYSTEM	
RESOLUTION	
DELTAX	1
XUNITS	NANOMETERS
YUNITS	INTENSITY
FIRSTX	400.0000
LASTX	700.0000
NPOINTS	301
FIRSTY	18.35279
MAXY	158.22646
MINY	5.62110
XYDATA
400.0000	18.3528
401.0000	19.026
402.0000	19.7451
403.0000	20.4517
404.0000	21.1415
405.0000	21.7789
406.0000	22.3889
407.0000	23.0003
408.0000	23.5825
409.0000	24.1025
410.0000	24.5822
411.0000	25.0144
412.0000	25.4064
413.0000	25.7443
414.0000	26.0193
415.0000	26.3004
416.0000	26.5681
417.0000	26.8184
418.0000	27.042
419.0000	27.2486
420.0000	27.4358
421.0000	27.6168
422.0000	27.7937
423.0000	27.9868
424.0000	28.1066
425.0000	28.1751
426.0000	28.2123
427.0000	28.3553
428.0000	28.4947
429.0000	28.6994
430.0000	28.8339
431.0000	29.0147
432.0000	29.1583
433.0000	29.3454
434.0000	29.5438
435.0000	29.757
436.0000	29.9671
437.0000	30.1703
438.0000	30.3407
439.0000	30.4711
440.0000	30.5829
441.0000	30.6977
442.0000	30.8078
443.0000	30.8787
444.0000	30.9237
445.0000	30.9777
446.0000	31.041
447.0000	31.1182
448.0000	31.1219
449.0000	31.1026
450.0000	31.0484
451.0000	31.0458
452.0000	31.0386
453.0000	31.027
454.0000	30.9819
455.0000	30.9366
456.0000	30.9172
457.0000	30.9011
458.0000	30.8484
459.0000	30.7775
460.0000	30.7076
461.0000	30.6825
462.0000	30.6217
463.0000	30.5839
464.0000	30.5665
465.0000	30.5675
466.0000	30.5631
467.0000	30.6018
468.0000	30.677
469.0000	30.7491
470.0000	30.7642
471.0000	30.7972
472.0000	30.8582
473.0000	30.9375
474.0000	30.9882
475.0000	31.0468
476.0000	31.1058
477.0000	31.1587
478.0000	31.1659
479.0000	31.1967
480.0000	31.2093
481.0000	31.2763
482.0000	31.2874
483.0000	31.3005
484.0000	31.3
485.0000	31.2857
486.0000	31.3046
487.0000	31.2779
488.0000	31.2998
489.0000	31.2489
490.0000	31.2151
491.0000	31.17
492.0000	31.165
493.0000	31.1387
494.0000	31.0998
495.0000	31.0443
496.0000	30.9837
497.0000	30.942
498.0000	30.9185
499.0000	30.9507
500.0000	30.9378
501.0000	30.9263
502.0000	30.8629
503.0000	30.8481
504.0000	30.8087
505.0000	30.7955
506.0000	30.7925
507.0000	30.8007
508.0000	30.7975
509.0000	30.8159
510.0000	30.881
511.0000	30.9466
512.0000	30.9963
513.0000	31.0894
514.0000	31.2384
515.0000	31.3649
516.0000	31.508
517.0000	31.6792
518.0000	31.9275
519.0000	32.2105
520.0000	32.5088
521.0000	32.8591
522.0000	33.2255
523.0000	33.6529
524.0000	34.1723
525.0000	34.7696
526.0000	35.4335
527.0000	36.1408
528.0000	36.9227
529.0000	37.7976
530.0000	38.7967
531.0000	39.8768
532.0000	41.0823
533.0000	42.4376
534.0000	44.0719
535.0000	45.8868
536.0000	47.8444
537.0000	49.9202
538.0000	52.1714
539.0000	54.6372
540.0000	57.3259
541.0000	60.2902
542.0000	63.5029
543.0000	67.0616
544.0000	71.0492
545.0000	75.3621
546.0000	79.7691
547.0000	84.3761
548.0000	89.2921
549.0000	94.5461
550.0000	99.8338
551.0000	105.308
552.0000	111.008
553.0000	116.888
554.0000	122.681
555.0000	128.328
556.0000	133.762
557.0000	138.893
558.0000	143.535
559.0000	147.633
560.0000	151.192
561.0000	154.132
562.0000	156.415
563.0000	157.796
564.0000	158.226
565.0000	157.6
566.0000	156.046
567.0000	153.693
568.0000	150.619
569.0000	146.814
570.0000	142.15
571.0000	136.928
572.0000	131.26
573.0000	125.339
574.0000	119.138
575.0000	112.849
576.0000	106.739
577.0000	100.824
578.0000	95.075
579.0000	89.466
580.0000	83.9931
581.0000	78.6513
582.0000	73.5999
583.0000	69.0273
584.0000	64.8343
585.0000	60.9444
586.0000	57.3412
587.0000	54.1591
588.0000	51.2089
589.0000	48.3948
590.0000	45.7788
591.0000	43.4657
592.0000	41.3362
593.0000	39.3573
594.0000	37.5625
595.0000	36.037
596.0000	34.6687
597.0000	33.3921
598.0000	32.1045
599.0000	30.8899
600.0000	29.7823
601.0000	28.821
602.0000	27.9768
603.0000	27.1744
604.0000	26.4399
605.0000	25.7336
606.0000	25.0879
607.0000	24.4676
608.0000	23.8806
609.0000	23.3282
610.0000	22.812
611.0000	22.3397
612.0000	21.8989
613.0000	21.5092
614.0000	21.151
615.0000	20.7773
616.0000	20.4217
617.0000	20.0688
618.0000	19.715
619.0000	19.4169
620.0000	19.1188
621.0000	18.8435
622.0000	18.5222
623.0000	18.2549
624.0000	18.0208
625.0000	17.7814
626.0000	17.5065
627.0000	17.266
628.0000	17.0218
629.0000	16.7973
630.0000	16.5476
631.0000	16.3169
632.0000	16.131
633.0000	15.9404
634.0000	15.7542
635.0000	15.5553
636.0000	15.3561
637.0000	15.1684
638.0000	14.9578
639.0000	14.7923
640.0000	14.6294
641.0000	14.4723
642.0000	14.2925
643.0000	14.128
644.0000	13.9587
645.0000	13.7784
646.0000	13.5864
647.0000	13.4226
648.0000	13.2629
649.0000	13.0974
650.0000	12.9326
651.0000	12.7973
652.0000	12.6701
653.0000	12.5155
654.0000	12.3462
655.0000	12.1804
656.0000	12.0258
657.0000	11.8743
658.0000	11.733
659.0000	11.5932
660.0000	11.4495
661.0000	11.3002
662.0000	11.1769
663.0000	11.0509
664.0000	10.9472
665.0000	10.8254
666.0000	10.7112
667.0000	10.5845
668.0000	10.4795
669.0000	10.3577
670.0000	10.2399
671.0000	10.1156
672.0000	10.0143
673.0000	9.91579
674.0000	9.82121
675.0000	9.74501
676.0000	9.65278
677.0000	9.57202
678.0000	9.46138
679.0000	9.3799
680.0000	9.2792
681.0000	9.17269
682.0000	9.01066
683.0000	8.80987
684.0000	8.58871
685.0000	8.33216
686.0000	8.08179
687.0000	7.76331
688.0000	7.44594
689.0000	7.07314
690.0000	6.7456
691.0000	6.44288
692.0000	6.18426
693.0000	5.97282
694.0000	5.79542
695.0000	5.67765
696.0000	5.6211
697.0000	5.6421
698.0000	5.70772
699.0000	5.82334
700.0000	5.98959
