TITLE	
DATA TYPE	
ORIGIN	JASCO
OWNER	
DATE	23/10/18
TIME	14:59:04
SPECTROMETER/DATA SYSTEM	
RESOLUTION	
DELTAX	1
XUNITS	NANOMETERS
YUNITS	INTENSITY
FIRSTX	400.0000
LASTX	700.0000
NPOINTS	301
FIRSTY	53.16206
MAXY	238.70917
MINY	9.47030
XYDATA
400.0000	53.1621
401.0000	55.0451
402.0000	56.9242
403.0000	58.7293
404.0000	60.3776
405.0000	61.9689
406.0000	63.4543
407.0000	64.9608
408.0000	66.3285
409.0000	67.5484
410.0000	68.5891
411.0000	69.5164
412.0000	70.372
413.0000	71.0703
414.0000	71.6299
415.0000	72.0043
416.0000	72.3264
417.0000	72.6231
418.0000	72.9
419.0000	73.0926
420.0000	73.2067
421.0000	73.2713
422.0000	73.3516
423.0000	73.3432
424.0000	73.3343
425.0000	73.3493
426.0000	73.3866
427.0000	73.4769
428.0000	73.621
429.0000	73.8472
430.0000	74.1249
431.0000	74.4201
432.0000	74.7738
433.0000	75.2203
434.0000	75.6817
435.0000	76.1748
436.0000	76.5966
437.0000	77.071
438.0000	77.4963
439.0000	77.8902
440.0000	78.2836
441.0000	78.6724
442.0000	79.0009
443.0000	79.1563
444.0000	79.3243
445.0000	79.511
446.0000	79.7066
447.0000	79.8651
448.0000	79.9083
449.0000	79.9251
450.0000	79.838
451.0000	79.7667
452.0000	79.6953
453.0000	79.6042
454.0000	79.4364
455.0000	79.2342
456.0000	79.0151
457.0000	78.8407
458.0000	78.6392
459.0000	78.4601
460.0000	78.266
461.0000	78.0843
462.0000	77.8407
463.0000	77.6407
464.0000	77.4585
465.0000	77.3682
466.0000	77.1902
467.0000	77.0907
468.0000	76.8737
469.0000	76.7926
470.0000	76.6484
471.0000	76.5977
472.0000	76.5311
473.0000	76.4686
474.0000	76.3892
475.0000	76.3248
476.0000	76.265
477.0000	76.2447
478.0000	76.2036
479.0000	76.141
480.0000	76.0924
481.0000	76.008
482.0000	75.9574
483.0000	75.8963
484.0000	75.8552
485.0000	75.7575
486.0000	75.6963
487.0000	75.6986
488.0000	75.7828
489.0000	75.8019
490.0000	75.8296
491.0000	75.8767
492.0000	75.9721
493.0000	76.1103
494.0000	76.3137
495.0000	76.5935
496.0000	76.8826
497.0000	77.2924
498.0000	77.8462
499.0000	78.4849
500.0000	79.1675
501.0000	79.8558
502.0000	80.7012
503.0000	81.6859
504.0000	82.7798
505.0000	84.0202
506.0000	85.4203
507.0000	87.2518
508.0000	89.311
509.0000	91.5624
510.0000	93.9436
511.0000	96.6319
512.0000	99.6586
513.0000	102.953
514.0000	106.703
515.0000	110.892
516.0000	115.46
517.0000	120.222
518.0000	125.383
519.0000	130.836
520.0000	136.621
521.0000	142.608
522.0000	149.12
523.0000	156.047
524.0000	163.291
525.0000	170.781
526.0000	178.471
527.0000	186.121
528.0000	193.642
529.0000	200.924
530.0000	207.995
531.0000	214.37
532.0000	220.243
533.0000	225.512
534.0000	230.236
535.0000	233.962
536.0000	236.755
537.0000	238.346
538.0000	238.709
539.0000	237.772
540.0000	235.757
541.0000	232.672
542.0000	228.527
543.0000	223.293
544.0000	216.833
545.0000	209.511
546.0000	201.666
547.0000	193.662
548.0000	185.182
549.0000	176.497
550.0000	167.814
551.0000	159.302
552.0000	150.654
553.0000	142.109
554.0000	133.948
555.0000	126.35
556.0000	119.249
557.0000	112.723
558.0000	106.797
559.0000	101.294
560.0000	96.054
561.0000	91.1328
562.0000	86.5794
563.0000	82.3973
564.0000	78.6581
565.0000	75.3597
566.0000	72.3608
567.0000	69.5649
568.0000	67.0781
569.0000	64.8489
570.0000	62.8147
571.0000	60.8509
572.0000	59.1232
573.0000	57.501
574.0000	56.0746
575.0000	54.6887
576.0000	53.5005
577.0000	52.3614
578.0000	51.3749
579.0000	50.4535
580.0000	49.6212
581.0000	48.79
582.0000	48.0034
583.0000	47.2509
584.0000	46.5825
585.0000	45.91
586.0000	45.3005
587.0000	44.722
588.0000	44.2128
589.0000	43.6751
590.0000	43.163
591.0000	42.6375
592.0000	42.1257
593.0000	41.6469
594.0000	41.189
595.0000	40.7854
596.0000	40.4062
597.0000	40.0414
598.0000	39.6157
599.0000	39.1795
600.0000	38.7427
601.0000	38.3761
602.0000	37.9694
603.0000	37.5934
604.0000	37.1981
605.0000	36.8185
606.0000	36.4695
607.0000	36.1443
608.0000	35.7942
609.0000	35.4611
610.0000	35.1048
611.0000	34.8105
612.0000	34.4627
613.0000	34.1083
614.0000	33.7538
615.0000	33.4187
616.0000	33.0991
617.0000	32.7476
618.0000	32.3893
619.0000	32.0535
620.0000	31.7123
621.0000	31.4333
622.0000	31.1292
623.0000	30.8518
624.0000	30.532
625.0000	30.2108
626.0000	29.9002
627.0000	29.5644
628.0000	29.2656
629.0000	28.9526
630.0000	28.6661
631.0000	28.3743
632.0000	28.0596
633.0000	27.736
634.0000	27.4207
635.0000	27.1289
636.0000	26.8192
637.0000	26.5175
638.0000	26.2355
639.0000	25.9535
640.0000	25.6281
641.0000	25.3395
642.0000	25.0966
643.0000	24.8358
644.0000	24.5416
645.0000	24.2419
646.0000	23.952
647.0000	23.6437
648.0000	23.3574
649.0000	23.1128
650.0000	22.8593
651.0000	22.5641
652.0000	22.2654
653.0000	22.0015
654.0000	21.7493
655.0000	21.481
656.0000	21.2239
657.0000	20.9869
658.0000	20.7155
659.0000	20.451
660.0000	20.173
661.0000	19.9544
662.0000	19.7028
663.0000	19.4476
664.0000	19.2041
665.0000	18.9832
666.0000	18.7588
667.0000	18.5223
668.0000	18.2981
669.0000	18.0634
670.0000	17.8729
671.0000	17.646
672.0000	17.4655
673.0000	17.2419
674.0000	17.0353
675.0000	16.8344
676.0000	16.6386
677.0000	16.4658
678.0000	16.3145
679.0000	16.173
680.0000	16.0131
681.0000	15.7701
682.0000	15.4698
683.0000	15.0987
684.0000	14.6891
685.0000	14.2477
686.0000	13.7525
687.0000	13.2159
688.0000	12.6387
689.0000	12.0375
690.0000	11.4277
691.0000	10.8431
692.0000	10.3771
693.0000	9.98768
694.0000	9.70388
695.0000	9.5011
696.0000	9.4703
697.0000	9.63081
698.0000	10.0687
699.0000	10.8375
700.0000	12.07
